MISSION ELAPSED TIME (min),dist
0,
8.236480545,1654.734677
9.236480545,2148.622243
10.23648055,2639.667014
11.23648055,3127.663222
12.23648055,3612.42882
13.23648055,4093.805515
14.23648055,4571.658483
15.23648055,5045.875815
16.23648055,5516.367717
17.23648055,5983.065535
18.23648055,6445.920622
19.23648055,6904.903131
20.23648055,7360.000732
21.23648055,7811.217329
22.23648055,8258.571775
23.23648055,8702.096624
24.23648055,9141.836934
25.23648055,9577.849112
26.23648055,10010.19985
27.23648055,10438.9651
28.23648055,10864.22915
29.23648055,11286.08378
30.23648055,11704.62741
31.23648055,12119.96444
32.23648055,12532.20455
33.23648055,12941.46213
34.23648055,13347.85573
35.23648055,13751.50758
36.23648055,14152.54314
37.23648055,14551.09075
38.23648055,14947.28126
39.23648055,15341.24773
40.23648055,15733.12514
41.23648055,16123.0502
42.23648055,16511.16106
43.23648055,16897.59718
44.23648055,17282.49912
45.23648055,17666.00844
46.23648055,18048.26751
47.23648055,18583.08803
48.63913203,18965.58795
49.63913203,19347.3111
50.63913203,19728.38931
51.63913203,20108.95479
52.63913203,20489.1401
53.63913203,20869.07802
54.63913203,21248.90151
55.63913203,21628.74359
56.63913203,22008.73728
57.63913203,22389.01554
58.63913203,22769.7112
59.63913203,23150.95682
60.63913203,23532.88468
61.63913203,23915.62666
62.63913203,24299.31413
63.63913203,24684.07789
64.63913203,25070.04804
65.63913203,25457.35385
66.63913203,25846.12366
67.63913203,26236.48471
68.63913203,26628.56298
69.63913203,27022.48307
70.63913203,27418.36791
71.63913203,27816.33861
72.63913203,28216.51422
73.63913203,28619.01142
74.63913203,29023.94425
75.63913203,29431.42376
76.63913203,29841.55768
77.63913203,30254.44995
78.63913203,30670.20033
79.63913203,31088.90385
80.63913203,31510.65033
81.63913203,31935.52373
82.63913203,32363.60152
83.63913203,32794.95399
84.63913203,33229.64348
85.63913203,33667.72358
86.63913203,34109.23824
87.63913203,34554.22089
88.63913203,35002.69347
89.63913203,35454.66546
90.63913203,35910.13285
91.63913203,36369.07715
92.63913203,36831.46441
93.63913203,37297.24422
94.63913203,37766.34891
95.63913203,38238.69264
96.63913203,38714.17081
97.63913203,39192.65951
98.63913203,39674.01516
99.63913203,39900.7921
100.1082326,40389.0055
101.1082326,40885.95566
102.1082326,41391.91705
103.1082326,41907.03363
104.1082326,42431.30802
105.1082326,42964.59287
106.1082326,43506.58552
107.1082326,44056.827
108.1082326,44614.70658
109.1082326,45179.47252
110.1082326,45750.24921
111.1082326,46326.06035
112.1082326,46905.85672
113.1082326,47488.5463
114.1082326,48073.02424
115.1082326,48658.19955
116.1082326,49243.01609
117.1082326,49818.44796
118.094466,50396.09139
119.094466,50964.08676
120.094466,51522.45701
121.094466,52071.30028
122.094466,52610.77216
123.094466,53141.07069
124.094466,53662.42407
125.094466,54175.08069
126.094466,54679.30137
127.094466,55175.35319
128.094466,55663.50484
129.094466,56144.02311
130.094466,56617.17032
131.094466,57083.20244
132.094466,57542.3678
133.094466,57994.90626
134.094466,58441.04869
135.094466,58881.0167
136.094466,59315.02258
137.094466,59743.26942
138.094466,60165.9512
139.094466,60583.25312
140.094466,60995.35186
141.094466,61402.41591
142.094466,61804.60595
143.094466,62202.07517
144.094466,62594.96965
145.094466,62983.4287
146.094466,63367.58523
147.094466,63747.56604
148.094466,64123.49221
149.094466,64495.47933
150.094466,64863.63786
151.094466,65228.07337
152.094466,65588.88679
153.094466,65946.17474
154.094466,66300.02965
155.094466,66650.54008
156.094466,66997.79088
157.094466,67341.8634
158.094466,67682.83566
159.094466,68020.78255
160.094466,68355.77599
161.094466,68687.88507
162.094466,69017.17618
163.094466,69343.71319
164.094466,69667.55755
165.094466,69988.7684
166.094466,70307.40274
167.094466,70623.51546
168.094466,70937.15948
169.094466,71248.38584
170.094466,71557.24381
171.094466,71863.78092
172.094466,72168.04311
173.094466,72470.07476
174.094466,72769.91874
175.094466,73067.61654
176.094466,73363.20827
177.094466,73656.7328
178.094466,73948.22769
179.094466,74237.72939
180.094466,74525.27317
181.094466,74810.89323
182.094466,75094.62275
183.094466,75376.49389
184.094466,75656.53787
185.094466,75934.78499
186.094466,76211.26468
187.094466,76486.00552
188.094466,76759.03526
189.094466,77030.3809
190.094466,77300.0687
191.094466,77568.12416
192.094466,77834.57212
193.094466,78099.43672
194.094466,78362.74151
195.094466,78624.50938
196.094466,78769.13562
196.649466,79028.5777
197.649466,79286.53887
198.649466,79543.04001
199.649466,79798.10146
200.649466,80051.74307
201.649466,80303.98418
202.649466,80554.8437
203.649466,80804.34003
204.649466,81052.49117
205.649466,81299.31469
206.649466,81544.82773
207.649466,81789.04704
208.649466,82031.98898
209.649466,82273.66957
210.649466,82514.10442
211.649466,82753.30881
212.649466,82991.2977
213.649466,83228.08571
214.649466,83463.68711
215.649466,83698.11593
216.649466,83931.38581
217.649466,84163.51019
218.649466,84394.50218
219.649466,84624.37462
220.649466,84853.14008
221.649466,85080.8109
222.649466,85307.39915
223.649466,85532.91664
224.649466,85757.37499
225.649466,85980.78554
226.649466,86203.15945
227.649466,86424.50763
228.649466,86644.84079
229.649466,86864.16944
230.649466,87082.5039
231.649466,87299.85426
232.649466,87516.23046
233.649466,87731.64224
234.649466,87946.09913
235.649466,88159.61056
236.649466,88372.18571
237.649466,88583.83365
238.649466,88794.56325
239.649466,89004.38325
240.649466,89213.30222
241.649466,89421.32858
242.649466,89628.47064
243.649466,89834.7365
244.649466,90040.13417
245.649466,90244.67152
246.649466,90448.35629
247.649466,90651.19605
248.649466,90853.1983
249.649466,91054.37038
250.649466,91254.71953
251.649466,91454.25285
252.649466,91652.97736
253.649466,91850.89992
254.649466,92048.02732
255.649466,92244.36623
256.649466,92439.92322
257.649466,92634.70475
258.649466,92828.71718
259.649466,93021.96677
260.649466,93214.45969
261.649466,93406.20202
262.649466,93597.19975
263.649466,93787.45876
264.649466,93976.98486
265.649466,94165.78377
266.649466,94353.86114
267.649466,94541.2225
268.649466,94727.87334
269.649466,94913.81905
270.649466,95099.06495
271.649466,95283.61626
272.649466,95467.47817
273.649466,95650.65578
274.649466,95833.15409
275.649466,96014.97806
276.649466,96196.13259
277.649466,96376.62249
278.649466,96556.4525
279.649466,96735.62732
280.649466,96914.15157
281.649466,97092.02982
282.649466,97269.26657
283.649466,97442.98711
284.6427943,97617.15986
285.6427943,97790.70272
286.6427943,97963.61997
287.6427943,98135.91581
288.6427943,98307.59439
289.6427943,98478.65981
290.6427943,98649.11614
291.6427943,98818.96736
292.6427943,98988.21742
293.6427943,99156.87022
294.6427943,99324.92963
295.6427943,99492.39942
296.6427943,99659.28338
297.6427943,99825.5852
298.6427943,99991.30855
299.6427943,100156.4571
300.6427943,100321.0343
301.6427943,100485.0438
302.6427943,100648.4891
303.6427943,100811.3735
304.6427943,100973.7007
305.6427943,101135.4738
306.6427943,101296.6962
307.6427943,101457.3713
308.6427943,101617.5022
309.6427943,101777.0923
310.6427943,101936.1446
311.6427943,102094.6624
312.6427943,102252.6487
313.6427943,102410.1066
314.6427943,102567.0392
315.6427943,102723.4495
316.6427943,102879.3404
317.6427943,103034.715
318.6427943,103189.576
319.6427943,103343.9264
320.6427943,103497.769
321.6427943,103651.1067
322.6427943,103803.9423
323.6427943,103956.2784
324.6427943,104108.1179
325.6427943,104259.4634
326.6427943,104410.3176
327.6427943,104560.6831
328.6427943,104710.5627
329.6427943,104859.9587
330.6427943,105008.8739
331.6427943,105157.3108
332.6427943,105305.2718
333.6427943,105452.7595
334.6427943,105599.7763
335.6427943,105746.3247
336.6427943,105892.4071
337.6427943,106038.0258
338.6427943,106183.1833
339.6427943,106327.8818
340.6427943,106472.1237
341.6427943,106615.9114
342.6427943,106759.247
343.6427943,106902.1328
344.6427943,107044.5711
345.6427943,107186.564
346.6427943,107328.1138
347.6427943,107469.2227
348.6427943,107609.8927
349.6427943,107750.126
350.6427943,107889.9248
351.6427943,108029.291
352.6427943,108168.2269
353.6427943,108306.7344
354.6427943,108444.8156
355.6427943,108582.4724
356.6427943,108719.707
357.6427943,108856.5212
358.6427943,108992.917
359.6427943,109128.8964
360.6427943,109264.4613
361.6427943,109399.6137
362.6427943,109534.3553
363.6427943,109668.6881
364.6427943,109802.614
365.6427943,109936.1348
366.6427943,110069.2523
367.6427943,110201.9683
368.6427943,110334.2847
369.6427943,110466.2032
370.6427943,110597.7256
371.6427943,110728.8536
372.6427943,110859.5891
373.6427943,110989.9336
374.6427943,111119.889
375.6427943,111249.4569
376.6427943,111378.639
377.6427943,111507.437
378.6427943,111635.8526
379.6427943,111763.8873
380.6427943,111891.5428
381.6427943,112018.8207
382.6427943,112145.7227
383.6427943,112272.2503
384.6427943,112398.4051
385.6427943,112524.1887
386.6427943,112649.6027
387.6427943,112774.6485
388.6427943,112899.3276
389.6427943,113023.6418
390.6427943,113147.5923
391.6427943,113271.1808
392.6427943,113394.4088
393.6427943,113517.2776
394.6427943,113639.7887
395.6427943,113761.9437
396.6427943,113883.744
397.6427943,114005.1909
398.6427943,114126.2859
399.6427943,114247.0305
400.6427943,114367.426
401.6427943,114487.4738
402.6427943,114607.1753
403.6427943,114726.5318
404.6427943,114845.5448
405.6427943,114964.2156
406.6427943,115082.5456
407.6427943,115200.5359
408.6427943,115318.1881
409.6427943,115435.5034
410.6427943,115552.4831
411.6427943,115669.1285
412.6427943,115785.4409
413.6427943,115901.4216
414.6427943,116017.0718
415.6427943,116132.3929
416.6427943,116247.386
417.6427943,116362.0525
418.6427943,116476.3935
419.6427943,116590.4103
420.6427943,116704.1041
421.6427943,116817.4762
422.6427943,116930.5277
423.6427943,117043.2598
424.6427943,117155.6738
425.6427943,117267.7708
426.6427943,117379.552
427.6427943,117491.0186
428.6427943,117602.1717
429.6427943,117713.0125
430.6427943,117823.5422
431.6427943,117933.7618
432.6427943,118043.6726
433.6427943,118153.2756
434.6427943,118262.5719
435.6427943,118371.5628
436.6427943,118480.2493
437.6427943,118588.6324
438.6427943,118696.7134
439.6427943,118804.4932
440.6427943,118911.9731
441.6427943,119019.154
442.6427943,119126.037
443.6427943,119232.6232
444.6427943,119338.9136
445.6427943,119444.9094
446.6427943,119550.6115
447.6427943,119656.021
448.6427943,119761.1389
449.6427943,119865.9664
450.6427943,119970.5043
451.6427943,120074.7537
452.6427943,120178.7157
453.6427943,120282.3912
454.6427943,120385.7812
455.6427943,120488.8869
456.6427943,120591.709
457.6427943,120694.2487
458.6427943,120796.5069
459.6427943,120898.4846
460.6427943,121000.1828
461.6427943,121101.6025
462.6427943,121202.7445
463.6427943,121303.61
464.6427943,121404.1997
465.6427943,121504.5148
466.6427943,121604.5561
467.6427943,121704.3245
468.6427943,121803.8211
469.6427943,121903.0468
470.6427943,122002.0024
471.6427943,122100.6889
472.6427943,122199.1073
473.6427943,122297.2584
474.6427943,122395.1431
475.6427943,122492.7625
476.6427943,122590.1173
477.6427943,122687.2085
478.6427943,122784.037
479.6427943,122880.6037
480.6427943,122976.9095
481.6427943,123072.9552
482.6427943,123168.7417
483.6427943,123264.27
484.6427943,123359.5408
485.6427943,123454.5552
486.6427943,123549.3139
487.6427943,123643.8178
488.6427943,123738.0677
489.6427943,123832.0646
490.6427943,123925.8093
491.6427943,124019.3026
492.6427943,124112.5454
493.6427943,124205.5386
494.6427943,124298.283
495.6427943,124390.7793
496.6427943,124483.0286
497.6427943,124575.0315
498.6427943,124666.789
499.6427943,124758.3019
500.6427943,124849.5709
501.6427943,124940.597
502.6427943,125031.3809
503.6427943,125121.9234
504.6427943,125212.2254
505.6427943,125302.2877
506.6427943,125392.1111
507.6427943,125481.6965
508.6427943,125571.0445
509.6427943,125660.1561
510.6427943,125749.0319
511.6427943,125837.6729
512.6427943,125926.0798
513.6427943,126014.2535
514.6427943,126102.1946
515.6427943,126189.904
516.6427943,126277.3825
517.6427943,126364.6309
518.6427943,126451.6499
519.6427943,126538.4404
520.6427943,126625.0031
521.6427943,126711.3387
522.6427943,126797.4482
523.6427943,126883.3322
524.6427943,126968.9915
525.6427943,127054.4269
526.6427943,127139.6391
527.6427943,127224.629
528.6427943,127309.3973
529.6427943,127393.9447
530.6427943,127478.2721
531.6427943,127562.3801
532.6427943,127646.2695
533.6427943,127729.9412
534.6427943,127813.3958
535.6427943,127896.6341
536.6427943,127979.6569
537.6427943,128062.4649
538.6427943,128145.0588
539.6427943,128227.4395
540.6427943,128309.6076
541.6427943,128391.564
542.6427943,128473.3093
543.6427943,128554.8442
544.6427943,128636.1697
545.6427943,128717.2863
546.6427943,128798.1948
547.6427943,128878.896
548.6427943,128959.3906
549.6427943,129039.6794
550.6427943,129119.763
551.6427943,129199.6423
552.6427943,129279.3179
553.6427943,129358.7906
554.6427943,129438.0611
555.6427943,129517.1302
556.6427943,129595.9985
557.6427943,129674.6669
558.6427943,129753.136
559.6427943,129831.4066
560.6427943,129909.4795
561.6427943,129987.3552
562.6427943,130065.0346
563.6427943,130142.5184
564.6427943,130219.8074
565.6427943,130296.9022
566.6427943,130373.8035
567.6427943,130450.5122
568.6427943,130527.0289
569.6427943,130603.3544
570.6427943,130679.4893
571.6427943,130755.4344
572.6427943,130816.5519
573.449368,130892.156
574.449368,130967.5723
575.449368,131042.8016
576.449368,131117.8446
577.449368,131192.7019
578.449368,131267.3744
579.449368,131341.8628
580.449368,131416.1677
581.449368,131490.2899
582.449368,131564.2302
583.449368,131637.9891
584.449368,131711.5676
585.449368,131784.9663
586.449368,131858.1858
587.449368,131931.227
588.449368,132004.0906
589.449368,132076.7773
590.449368,132149.2878
591.449368,132221.6228
592.449368,132293.7831
593.449368,132365.7693
594.449368,132437.5823
595.449368,132509.2227
596.449368,132580.6913
597.449368,132651.9888
598.449368,132723.1158
599.449368,132794.0733
600.449368,132864.8618
601.449368,132935.4821
602.449368,133005.9349
603.449368,133076.221
604.449368,133146.3411
605.449368,133216.2959
606.449368,133286.0862
607.449368,133355.7126
608.449368,133425.176
609.449368,133494.477
610.449368,133563.6164
611.449368,133632.5949
612.449368,133701.4133
613.449368,133770.0723
614.449368,133838.5726
615.449368,133906.915
616.449368,133975.1001
617.449368,134043.1289
618.449368,134111.0019
619.449368,134178.7199
620.449368,134246.2837
621.449368,134313.6941
622.449368,134380.9517
623.449368,134448.0573
624.449368,134515.0116
625.449368,134581.8155
626.449368,134648.4696
627.449368,134714.9747
628.449368,134781.3316
629.449368,134847.541
630.449368,134913.6036
631.449368,134979.5203
632.449368,135045.2917
633.449368,135110.9187
634.449368,135176.4019
635.449368,135241.7422
636.449368,135306.9403
637.449368,135371.997
638.449368,135436.913
639.449368,135501.6891
640.449368,135566.3261
641.449368,135630.8247
642.449368,135695.1857
643.449368,135759.4099
644.449368,135823.4981
645.449368,135887.4509
646.449368,135951.2693
647.449368,136014.954
648.449368,136078.5057
649.449368,136141.9252
650.449368,136205.2134
651.449368,136268.3709
652.449368,136331.3987
653.449368,136394.2974
654.449368,136457.0678
655.449368,136519.7109
656.449368,136582.2272
657.449368,136644.6177
658.449368,136706.8832
659.449368,136769.0243
660.449368,136831.042
661.449368,136892.937
662.449368,136954.7101
663.449368,137016.3622
664.449368,137077.894
665.449368,137139.3063
666.449368,137200.6
667.449368,137261.7759
668.449368,137322.8347
669.449368,137383.7773
670.449368,137444.6045
671.449368,137505.3171
672.449368,137565.916
673.449368,137626.402
674.449368,137686.7758
675.449368,137747.0384
676.449368,137807.1904
677.449368,137867.2329
678.449368,137927.1666
679.449368,137986.9923
680.449368,138046.7108
681.449368,138106.3231
682.449368,138165.8299
683.449368,138225.2321
684.449368,138284.5306
685.449368,138343.7261
686.449368,138402.8195
687.449368,138461.8117
688.449368,138520.7036
689.449368,138579.4959
690.449368,138638.1895
691.449368,138696.7854
692.449368,138755.2842
693.449368,138813.687
694.449368,138871.9946
695.449368,1.39E+05
696.449368,138988.3275
697.449368,139046.3545
698.449368,139104.2898
699.449368,139162.1343
700.449368,139219.8887
701.449368,139277.5539
702.449368,139335.131
703.449368,139392.6206
704.449368,139450.0238
705.449368,139507.3413
706.449368,139564.5742
707.449368,139621.7232
708.449368,139678.7893
709.449368,139735.7733
710.449368,139792.6762
711.449368,139849.4988
712.449368,139906.2421
713.449368,139962.9069
714.449368,140019.4941
715.449368,140076.0048
716.449368,140132.4396
717.449368,140188.7997
718.449368,140245.0858
719.449368,140301.2989
720.449368,140357.4399
721.449368,140413.5098
722.449368,140469.5094
723.449368,140525.4396
724.449368,140581.3014
725.449368,140637.0958
726.449368,140692.8235
727.449368,140748.4856
728.449368,140804.083
729.449368,140859.6166
730.449368,140915.0874
731.449368,140970.4963
732.449368,141025.8441
733.449368,141081.1319
734.449368,141136.3607
735.449368,141191.5312
736.449368,141246.6446
737.449368,141301.7016
738.449368,141356.7034
739.449368,141411.6507
740.449368,141466.5447
741.449368,141521.3861
742.449368,141576.176
743.449368,141630.9153
744.449368,141685.6051
745.449368,141740.2461
746.449368,141794.8395
747.449368,141849.3861
748.449368,141903.8869
749.449368,141958.3429
750.449368,142012.7551
751.449368,142067.1244
752.449368,142121.4517
753.449368,142175.7381
754.449368,142229.9845
755.449368,142284.1919
756.449368,142338.3612
757.449368,142392.4935
758.449368,142446.5897
759.449368,142500.6507
760.449368,142554.6776
761.449368,142608.6714
762.449368,142662.6329
763.449368,142716.5633
764.449368,142770.4634
765.449368,142824.3343
766.449368,142878.1769
767.449368,142931.9923
768.449368,142985.7813
769.449368,143039.545
770.449368,143093.2844
771.449368,143147.0005
772.449368,143200.6943
773.449368,143254.3666
774.449368,143308.0186
775.449368,143361.6513
776.449368,143415.2655
777.449368,143468.8623
778.449368,143522.4427
779.449368,143576.0078
780.449368,143629.5583
781.449368,143683.0955
782.449368,143736.6202
783.449368,143790.1335
784.449368,143843.6364
785.449368,143897.1298
786.449368,143950.6147
787.449368,144004.0922
788.449368,144057.5632
789.449368,144111.0287
790.449368,144164.4898
791.449368,144217.9474
792.449368,144271.676
793.449368,144325.9511
794.449368,144371.6005
795.282716,144426.6086
796.282716,144481.6181
797.282716,144536.6298
798.282716,144591.6448
799.282716,144646.664
800.282716,144701.6883
801.282716,144756.7188
802.282716,144811.7563
803.282716,144866.8018
804.282716,144921.8564
805.282716,144976.9209
806.282716,145031.9962
807.282716,145087.0835
808.282716,145142.1835
809.282716,145197.2974
810.282716,145252.4259
811.282716,145307.5701
812.282716,145362.731
813.282716,145417.9095
814.282716,145473.1065
815.282716,145528.3229
816.282716,145583.5599
817.282716,145638.8182
818.282716,145694.0988
819.282716,145749.4028
820.282716,145804.731
821.282716,145860.0844
822.282716,145915.464
823.282716,145970.8706
824.282716,146026.3053
825.282716,146081.7689
826.282716,146137.2625
827.282716,146192.787
828.282716,146248.3433
829.282716,146303.9323
830.282716,146359.555
831.282716,146415.2124
832.282716,146470.9053
833.282716,146526.6347
834.282716,146582.4016
835.282716,146638.2069
836.282716,146694.0515
837.282716,146749.9364
838.282716,146805.8624
839.282716,146861.8306
840.282716,146917.8418
841.282716,146973.897
842.282716,147029.9971
843.282716,147086.143
844.282716,147142.3357
845.282716,147198.5761
846.282716,147254.8651
847.282716,147311.2036
848.282716,147367.5926
849.282716,147424.0329
850.282716,147480.5255
851.282716,147537.0713
852.282716,147593.6712
853.282716,147650.3262
854.282716,147707.0371
855.282716,147763.8048
856.282716,147820.6303
857.282716,147877.5145
858.282716,147934.4582
859.282716,147991.4624
860.282716,148048.528
861.282716,148105.6559
