MISSION ELAPSED TIME (min),Rx(km)[J2000-EARTH],Ry(km)[J2000-EARTH],Rz(km)[J2000-EARTH],Vx(km/s)[J2000-EARTH],Vy(km/s)[J2000-EARTH],Vz(km/s)[J2000-EARTH],MASS (kg),WPSA,WPSA Range,DS54,DS54 Range,DS24,Range DS24,deltaXYZ,distance,
0,3689.773564,4222.72217,3028.891599,-0.307917333,0.268538679,0.000720065,4592.6,1,1139.486313,0,0,0,0,,,
8.236480545,2319.817224,4865.712767,3698.167005,-7.474524081,2.142612551,2.894976887,60129.73972,0,0,0,0,0,0,1654.734677,1654.734677,
9.236480545,1865.808701,4981.749611,3862.256016,-7.65217195,1.724827772,2.573245596,60129.73972,0,0,1,3804.920572,0,0,493.8875658,2148.622243,
10.23648055,1402.384261,5072.667625,4006.812686,-7.788450893,1.30581359,2.244322238,60129.73972,0,0,1,3804.920572,0,0,491.044771,2639.667014,
11.23648055,932.0104707,5138.4804,4131.480818,-7.883948983,0.888450483,1.910701763,60129.73972,0,0,1,3804.920572,0,0,487.996208,3127.663222,
12.23648055,457.1066771,5179.368385,4236.050692,-7.93964356,0.475414741,1.574766234,60129.73972,0,0,1,3804.920572,0,0,484.7655984,3612.42882,
13.23648055,-19.97676063,5195.6658,4320.451362,-7.956847669,0.069152241,1.238754935,60129.73972,0,0,1,3804.920572,0,0,481.3766947,4093.805515,
14.23648055,-496.9769412,5187.846254,4384.741366,-7.937154128,-0.328138849,0.904741609,60129.73972,0,0,1,3804.920572,0,0,477.8529683,4571.658483,
15.23648055,-971.7335203,5156.50757,4429.098291,-7.882379437,-0.714516954,0.574618717,60129.73972,0,0,1,3804.920572,0,0,474.2173317,5045.875815,
16.23648055,-1442.200491,5102.356322,4453.807591,-7.79450954,-1.08829837,0.250088327,60129.73972,0,0,1,3804.920572,0,0,470.4919027,5516.367717,
17.23648055,-1906.454806,5026.192483,4459.251039,-7.675649078,-1.448052019,-0.067341031,60129.73972,0,0,1,3804.920572,0,0,466.6978176,5983.065535,
18.23648055,-2362.702095,4928.894567,4445.895151,-7.527975387,-1.792588909,-0.376352394,60129.73972,0,0,1,3804.920572,0,0,462.8550875,6445.920622,
19.23648055,-2809.27978,4811.405518,4414.27986,-7.353697992,-2.120947607,-0.675814242,60129.73972,0,0,1,3804.920572,0,0,458.9825087,6904.903131,
20.23648055,-3244.657942,4674.719569,4365.00765,-7.155023952,-2.432376945,-0.964771208,60129.73972,0,0,1,3804.920572,0,0,455.0976014,7360.000732,
21.23648055,-3667.438274,4519.870184,4298.733329,-6.934129027,-2.726317053,-1.242432508,60129.73972,0,0,1,3804.920572,0,0,451.2165961,7811.217329,
22.23648055,-4076.35148,4347.919174,4216.154538,-6.693134399,-3.002379637,-1.50815892,60129.73972,0,0,0,0,0,0,447.3544462,8258.571775,
23.23648055,-4470.253434,4159.946995,4118.003068,-6.434088495,-3.260328225,-1.76144897,60129.73972,0,0,0,0,0,0,443.5248497,8702.096624,
24.23648055,-4848.120379,3957.044221,4005.037018,-6.158953369,-3.500058919,-2.001924858,60129.73972,0,0,0,0,0,0,439.7403092,9141.836934,
25.23648055,-5209.043443,3740.304141,3878.033793,-5.869595089,-3.721582058,-2.229318554,60129.73972,0,0,0,0,0,0,436.0121785,9577.849112,
26.23648055,-5552.222675,3510.816431,3737.783925,-5.567777544,-3.925005061,-2.443458358,60129.73972,0,0,0,0,0,0,432.3507354,10010.19985,
27.23648055,-5876.960802,3269.661807,3585.085678,-5.255159138,-4.110516609,-2.64425616,60129.73972,0,0,0,0,0,0,428.7652508,10438.9651,
28.23648055,-6182.656865,3017.907591,3420.740395,-4.933291871,-4.278372264,-2.831695548,60129.73972,0,0,0,0,0,0,425.2640566,10864.22915,
29.23648055,-6468.799851,2756.604091,3245.548528,-4.603622351,-4.428881558,-3.005820849,60129.73972,0,0,0,0,0,0,421.854625,11286.08378,
30.23648055,-6734.962443,2486.781712,3060.3063,-4.267494323,-4.562396518,-3.166727157,60129.73972,0,0,0,0,0,0,418.5436304,11704.62741,
31.23648055,-6980.794954,2209.448722,2865.802933,-3.926152374,-4.679301593,-3.314551359,60129.73972,0,0,0,0,0,0,415.3370284,12119.96444,
32.23648055,-7206.019509,1925.589567,2662.818384,-3.580746503,-4.780004897,-3.449464124,60129.73972,0,0,0,0,0,0,412.2401126,12532.20455,
33.23648055,-7410.424523,1636.163691,2452.121533,-3.232337288,-4.864930666,-3.57166284,60129.73972,0,0,0,0,0,0,409.2575818,12941.46213,
34.23648055,-7593.859503,1342.104762,2234.468776,-2.881901453,-4.934512844,-3.681365419,60129.73972,0,0,0,0,0,0,406.3935995,13347.85573,
35.23648055,-7756.230186,1044.320257,2010.602951,-2.530337643,-4.989189675,-3.778804918,60129.73972,0,0,0,0,0,0,403.6518432,13751.50758,
36.23648055,-7897.494034,743.6913444,1781.25258,-2.178472278,-5.029399205,-3.864224916,60129.73972,0,0,0,0,0,0,401.0355603,14152.54314,
37.23648055,-8017.65607,441.0730108,1547.131351,-1.827065381,-5.055575577,-3.937875555,60129.73972,0,0,0,0,0,0,398.5476108,14551.09075,
38.23648055,-8116.765072,137.2943871,1308.937834,-1.476816284,-5.068146042,-4.000010195,60129.73972,0,0,0,0,0,0,396.1905107,14947.28126,
39.23648055,-8194.910096,-166.8407631,1067.355371,-1.128369166,-5.067528578,-4.050882604,60129.73972,0,0,0,0,0,0,393.9664679,15341.24773,
40.23648055,-8252.217328,-470.5534292,823.0521261,-0.782318377,-5.054130043,-4.090744632,60129.73972,0,0,0,0,0,0,391.8774183,15733.12514,
41.23648055,-8288.847247,-773.088643,576.6812584,-0.439213522,-5.028344794,-4.119844303,60129.73972,0,0,0,0,0,0,389.9250562,16123.0502,
42.23648055,-8304.992087,-1073.714697,328.8811994,-0.099564283,-4.990553688,-4.13842427,60129.73972,0,0,0,0,0,0,388.1108592,16511.16106,
43.23648055,-8300.87358,-1371.722312,80.27601373,0.236155013,-4.94112344,-4.146720601,60129.73972,0,0,0,0,0,0,386.4361173,16897.59718,
44.23648055,-8276.740968,-1666.42378,-168.5241763,0.567501093,-4.880406252,-4.144961838,60129.73972,0,0,0,0,0,0,384.9019483,17282.49912,
45.23648055,-8232.869254,-1957.152085,-416.9227173,0.89405769,-4.808739699,-4.133368303,60129.73972,0,0,0,0,0,0,383.5093179,17666.00844,
46.23648055,-8169.557709,-2243.260027,-664.3359157,1.215431742,-4.726446824,-4.112151614,60129.73972,0,0,0,0,0,0,382.2590629,18048.26751,
47.23648055,-8087.128576,-2524.119362,-910.1925063,1.531249817,-4.633836405,-4.081514385,60129.73972,0,0,0,0,0,0,534.8205234,18583.08803,
48.63913203,-7939.798306,-2908.441304,-1251.694232,1.977502442,-4.518661328,-4.051248228,59529.04604,0,0,0,0,0,0,382.4999246,18965.58795,
49.63913203,-7812.08519,-3176.120857,-1493.237622,2.278498027,-4.402397725,-3.998707764,59529.04604,0,0,0,0,0,0,381.7231509,19347.3111,
50.63913203,-7666.514452,-3436.54064,-1731.362087,2.572698408,-4.276714285,-3.937313264,59529.04604,0,0,0,0,0,0,381.0782011,19728.38931,
51.63913203,-7503.504192,-3689.143523,-1965.541578,2.859758453,-4.14187814,-3.867236779,59529.04604,0,0,0,0,0,0,380.5654805,20108.95479,
52.63913203,-7323.493029,-3933.388136,-2195.260178,3.139339068,-3.998147683,-3.788643966,59529.04604,0,0,0,0,0,0,380.1853101,20489.1401,
53.63913203,-7126.939801,-4168.748373,-2420.011724,3.411104897,-3.845773411,-3.70169445,59529.04604,0,0,0,0,0,0,379.9379268,20869.07802,
54.63913203,-6914.323412,-4394.712944,-2639.299462,3.674722153,-3.684998852,-3.606542281,59529.04604,0,0,0,0,0,0,379.8234872,21248.90151,
55.63913203,-6686.142798,-4610.784984,-2852.635728,3.929856562,-3.516061582,-3.503336479,59529.04604,0,0,0,0,0,0,379.8420748,21628.74359,
56.63913203,-6442.917013,-4816.481736,-3059.541662,4.176171412,-3.33919433,-3.392221671,59529.04604,0,0,0,0,0,0,379.9936917,22008.73728,
57.63913203,-6185.185435,-5011.334287,-3259.546969,4.413325706,-3.154626168,-3.273338812,59529.04604,0,0,0,0,0,0,380.2782678,22389.01554,
58.63913203,-5913.508075,-5194.887393,-3452.189722,4.640972414,-2.962583791,-3.146825995,59529.04604,0,0,0,0,0,0,380.6956528,22769.7112,
59.63913203,-5628.465986,-5366.699371,-3637.016213,4.858756819,-2.763292884,-3.012819353,59529.04604,0,0,0,0,0,0,381.245622,23150.95682,
60.63913203,-5330.661775,-5526.34209,-3813.580871,5.066314949,-2.556979596,-2.871454055,59529.04604,0,0,0,0,0,0,381.9278606,23532.88468,
61.63913203,-5020.720203,-5673.401036,-3981.446231,5.263272108,-2.343872109,-2.722865403,59529.04604,0,0,0,0,0,0,382.7419752,23915.62666,
62.63913203,-4699.288868,-5807.475493,-4140.182983,5.449241503,-2.124202321,-2.567190031,59529.04604,0,0,0,0,0,0,383.6874714,24299.31413,
63.63913203,-4367.038972,-5928.178812,-4289.370084,5.623822963,-1.898207648,-2.404567226,59529.04604,0,0,0,0,0,0,384.7637628,24684.07789,
64.63913203,-4024.666155,-6035.138804,-4428.594965,5.786601781,-1.66613295,-2.235140366,59529.04604,0,0,0,0,0,0,385.9701482,25070.04804,
65.63913203,-3672.891406,-6127.998246,-4557.453823,5.937147661,-1.428232603,-2.05905849,59529.04604,0,0,0,0,0,0,387.3058121,25457.35385,
66.63913203,-3312.462019,-6206.415516,-4675.552006,6.075013815,-1.184772712,-1.876478018,59529.04604,0,0,0,0,0,0,388.769809,25846.12366,
67.63913203,-2944.152611,-6270.065373,-4782.504519,6.199736204,-0.936033483,-1.68756462,59529.04604,0,0,0,0,0,0,390.3610463,26236.48471,
68.63913203,-2568.766175,-6318.639872,-4877.936632,6.310832967,-0.682311771,-1.492495256,59529.04604,0,0,0,0,0,0,392.0782797,26628.56298,
69.63913203,-2187.135157,-6351.849445,-4961.484629,6.407804052,-0.423923792,-1.291460394,59529.04604,0,0,0,0,0,0,393.9200836,27022.48307,
70.63913203,-1800.122557,-6369.424154,-5032.796685,6.490131098,-0.161208041,-1.084666421,59529.04604,0,0,0,0,0,0,395.8848371,27418.36791,
71.63913203,-1408.623024,-6371.115113,-5091.533901,6.557277598,0.105471616,-0.872338257,59529.04604,0,0,0,0,0,0,397.9707056,27816.33861,
72.63913203,-1013.563928,-6356.696112,-5137.371501,6.6086894,0.375722635,-0.654722189,59529.04604,0,0,0,0,0,0,400.1756083,28216.51422,
73.63913203,-615.9063979,-6325.96544,-5170.000201,6.6437956,0.649120302,-0.432088917,59529.04604,0,0,0,0,0,0,402.4971987,28619.01142,
74.63913203,-216.6462854,-6278.747928,-5189.127775,6.662009891,0.92520404,-0.204736845,59529.04604,0,0,0,0,0,0,404.9328281,29023.94425,
75.63913203,183.1849617,-6214.897211,-5194.480816,6.662732444,1.203473534,0.02700441,59529.04604,0,0,0,0,0,0,407.4795168,29431.42376,
76.63913203,582.5195612,-6134.298238,-5185.806727,6.645352401,1.483384694,0.262770271,59529.04604,0,0,0,0,0,0,410.1339166,29841.55768,
77.63913203,980.2528268,-6036.87002,-5162.875933,6.609251078,1.764345475,0.502157236,59529.04604,0,0,0,0,0,0,412.8922712,30254.44995,
78.63913203,1375.242814,-5922.568637,-5125.484337,6.553805964,2.045711601,0.744718718,59529.04604,0,0,0,0,0,0,415.7503757,30670.20033,
79.63913203,1766.310234,-5791.390497,-5073.456042,6.478395644,2.326782251,0.989960702,59529.04604,0,0,0,0,0,0,418.703526,31088.90385,
80.63913203,2152.23869,-5643.375866,-5006.646323,6.382405742,2.60679576,1.23733728,59529.04604,0,0,0,0,0,0,421.7464805,31510.65033,
81.63913203,2531.775311,-5478.612637,-4924.944882,6.265236014,2.884925444,1.486246109,59529.04604,0,0,0,0,0,0,424.8733977,31935.52373,
82.63913203,2903.631839,-5297.240354,-4828.279368,6.126308712,3.16027565,1.736023871,59529.04604,0,0,0,0,0,0,428.0777905,32363.60152,
83.63913203,3266.486266,-5099.454462,-4716.619167,5.965078329,3.431878167,1.985941844,59529.04604,0,0,0,0,0,0,431.3524704,32794.95399,
84.63913203,3618.985099,-4885.510752,-4589.97946,5.781042846,3.698689183,2.235201684,59529.04604,0,0,0,0,0,0,434.6894913,33229.64348,
85.63913203,3959.746345,-4655.729972,-4448.425512,5.57375657,3.959586959,2.482931606,59529.04604,0,0,0,0,0,0,438.0800946,33667.72358,
86.63913203,4287.363317,-4410.502549,-4292.077183,5.34284463,4.213370479,2.728183115,59529.04604,0,0,0,0,0,0,441.5146593,34109.23824,
87.63913203,4600.40936,-4150.293355,-4121.113606,5.088019162,4.458759337,2.969928546,59529.04604,0,0,0,0,0,0,444.982652,34554.22089,
88.63913203,4897.443603,-3875.646439,-3935.77799,4.809097167,4.69439516,3.207059636,59529.04604,0,0,0,0,0,0,448.4725861,35002.69347,
89.63913203,5177.017819,-3587.189611,-3736.382462,4.506019923,4.91884491,3.438387458,59529.04604,0,0,0,0,0,0,451.9719892,35454.66546,
90.63913203,5437.684504,-3285.638774,-3523.31287,4.178873777,5.130606416,3.662644012,59529.04604,0,0,0,0,0,0,455.4673891,35910.13285,
91.63913203,5678.006233,-2971.801836,-3297.033429,3.827912,5.328116508,3.878485848,59529.04604,0,0,0,0,0,0,458.9443012,36369.07715,
92.63913203,5896.566344,-2646.582059,-3058.09108,3.453577262,5.509762088,4.084500053,59529.04604,0,0,0,0,0,0,462.3872514,36831.46441,
93.63913203,6091.980981,-2310.980638,-2807.119416,3.056524141,5.673894458,4.279212957,59529.04604,0,0,0,0,0,0,465.7798179,37297.24422,
94.63913203,6262.912469,-1966.09832,-2544.841983,2.637640931,5.818847142,4.46110185,59529.04604,0,0,0,0,0,0,469.104682,37766.34891,
95.63913203,6408.083954,-1613.135849,-2272.074799,2.198069881,5.942957329,4.628609954,59529.04604,0,0,0,0,0,0,472.3437318,38238.69264,
96.63913203,6526.295185,-1253.39301,-1989.727857,1.739224854,6.044590948,4.780164797,59529.04604,0,0,0,0,0,0,475.4781761,38714.17081,
97.63913203,6616.43925,-888.2660616,-1698.805436,1.262805323,6.12217122,4.914200014,59529.04604,0,0,0,0,0,0,478.4886985,39192.65951,
98.63913203,6677.520019,-519.2433684,-1400.40499,0.770805548,6.174210344,5.029180488,59529.04604,0,0,0,0,0,0,481.3556445,39674.01516,
99.63913203,6708.669958,-147.8990401,-1095.714446,0.265517724,6.199343792,5.123630556,59529.04604,0,0,0,0,0,0,226.7769393,39900.7921,
100.1082326,6712.758423,26.63310567,-950.9746977,0.024630746,6.201514065,5.160465676,59454.07604,0,0,0,0,0,0,488.2134072,40389.0055,
101.1082326,6696.992724,400.4799717,-637.3789476,-0.551598795,6.255539942,5.28917081,57996.93593,0,0,0,0,0,0,496.9501581,40885.95566,
102.1082326,6646.420776,776.745842,-316.7141186,-1.135099154,6.281967796,5.395881325,56539.79583,0,0,0,0,0,0,505.9613911,41391.91705,
103.1082326,6560.698231,1153.744249,9.661088304,-1.722708833,6.279811284,5.479309872,55082.65572,0,0,0,0,0,0,515.1165778,41907.03363,
104.1082326,6439.688501,1529.736707,340.314087,-2.310658279,6.248343317,5.538297273,53625.51561,0,0,0,0,1,4297.006633,524.2743882,42431.30802,
105.1082326,6283.499912,1902.952138,673.7492394,-2.894553959,6.187227752,5.571920608,52168.3755,0,0,0,0,1,4297.006633,533.2848545,42964.59287,
106.1082326,6092.522517,2271.614615,1008.425723,-3.469407932,6.096663811,5.579618634,50711.23539,0,0,0,0,1,4297.006633,541.9926452,43506.58552,
107.1082326,5867.46144,2633.979879,1342.783248,-4.029725963,5.977531189,5.561326239,49254.09528,0,0,0,0,1,4297.006633,550.2414792,44056.827,
108.1082326,5609.362934,2988.380152,1675.275794,-4.569662872,5.831518485,5.517604611,47796.95517,1,74284.61081,0,0,1,4297.006633,557.8795852,44614.70658,
109.1082326,5319.629075,3333.275631,2004.412591,-5.08324572,5.661213758,5.449749401,46339.81506,1,74284.61081,0,0,1,4297.006633,564.7659361,45179.47252,
110.1082326,5000.017252,3667.309729,2328.804432,-5.564653899,5.470135133,5.35985683,44882.67496,1,74284.61081,0,0,1,4297.006633,570.7766899,45750.24921,
111.1082326,4652.621729,3989.363871,2647.212205,-6.008531997,5.262682932,5.250828835,43425.53485,1,74284.61081,0,0,1,4297.006633,575.8111463,46326.06035,
112.1082326,4279.83633,4298.606782,2958.593554,-6.410299125,5.044003559,5.126303896,41968.39474,1,74284.61081,0,0,1,4297.006633,579.7963612,46905.85672,
113.1082326,3884.299755,4594.53303,3262.143046,-6.766410986,4.819768936,4.990510381,40511.25463,1,74284.61081,0,0,0,0,582.6895801,47488.5463,
114.1082326,3468.827676,4876.986242,3557.321435,-7.074532182,4.595891088,4.848052629,39054.11452,1,74284.61081,0,0,0,0,584.4779437,48073.02424,
115.1082326,3036.337994,5146.164063,3843.870632,-7.333588238,4.378205337,4.703653263,37596.97441,1,74284.61081,0,0,0,0,585.1753118,48658.19955,
116.1082326,2589.776888,5402.604175,4121.8127,-7.54368755,4.172162403,4.561884092,36139.8343,1,74284.61081,0,0,0,0,584.8165423,49243.01609,
117.1082326,2132.05316,5647.153063,4391.433208,-7.705927135,3.982566866,4.426919054,34682.69419,1,74284.61081,0,0,0,0,575.4318657,49818.44796,
118.094466,1672.447436,5877.770421,4649.696726,-7.82081869,3.815563755,4.303966861,33240.775,1,74284.61081,1,68027.60838,0,0,577.6434258,50396.09139,
119.094466,1200.86585,6097.559614,4900.645816,-7.89350509,3.513461156,4.062543156,33240.775,1,74284.61081,1,68027.60838,0,0,567.9953743,50964.08676,
120.094466,725.7896108,6299.720009,5137.39988,-7.938041599,3.228049771,3.830998917,33240.775,1,74284.61081,1,68027.60838,0,0,558.3702473,51522.45701,
121.094466,248.7789951,6485.267464,5360.582199,-7.958657716,2.959716325,3.610265055,33231.915,1,74284.61081,1,68027.60838,0,0,548.8432707,52071.30028,
122.094466,-228.8477907,6655.225876,5570.85756,-7.959182908,2.708366926,3.400813299,33231.915,1,74284.61081,1,68027.60838,0,0,539.4718815,52610.77216,
123.094466,-705.9892831,6810.602567,5768.908036,-7.943009919,2.473563484,3.202765071,33231.915,1,74284.61081,1,68027.60838,0,0,530.2985344,53141.07069,
124.094466,-1181.734418,6952.371088,5955.414842,-7.913094934,2.254634943,3.015984543,33231.915,1,74284.61081,1,68027.60838,0,0,521.3533738,53662.42407,
125.094466,-1655.336943,7081.459971,6131.045275,-7.87198072,2.05076432,2.840154719,33231.915,1,74284.61081,1,68027.60838,0,0,512.6566266,54175.08069,
126.094466,-2126.191647,7198.746041,6296.44371,-7.821832462,1.861054425,2.674837496,33231.915,1,74284.61081,1,68027.60838,0,0,504.2206807,54679.30137,
127.094466,-2593.812933,7305.051127,6452.22579,-7.76447916,1.684575886,2.519519727,33231.915,1,74284.61081,1,68027.60838,0,0,496.0518157,55175.35319,
128.094466,-3057.815918,7401.141205,6598.975,-7.701455977,1.520401063,2.373647602,33231.915,1,74284.61081,1,68027.60838,0,0,488.1516449,55663.50484,
129.094466,-3517.900033,7487.727244,6737.241024,-7.634044724,1.36762707,2.236651685,33231.915,1,74284.61081,1,68027.60838,0,0,480.5182714,56144.02311,
130.094466,-3973.834956,7565.467172,6867.539369,-7.563310983,1.225390631,2.107964624,33231.915,1,74284.61081,1,68027.60838,0,0,473.1472105,56617.17032,
131.094466,-4425.448652,7634.968539,6990.351878,-7.490137199,1.092876932,1.98703328,33231.915,1,74284.61081,1,68027.60838,0,0,466.0321182,57083.20244,
132.094466,-4872.61727,7696.791586,7106.127839,-7.415251593,0.969324178,1.873326668,33231.915,1,74284.61081,1,68027.60838,0,0,459.1653617,57542.3678,
133.094466,-5315.256657,7751.452479,7215.285474,-7.339253073,0.85402515,1.766340821,33231.915,1,74284.61081,1,68027.60838,0,0,452.5384626,57994.90626,
134.094466,-5753.315257,7799.426581,7318.213646,-7.262632477,0.746326716,1.665601423,33231.915,1,74284.61081,1,68027.60838,0,0,446.1424271,58441.04869,
135.094466,-6186.768177,7841.151646,7415.273681,-7.185790542,0.64562802,1.570664864,33231.915,1,74284.61081,1,68027.60838,0,0,439.9680084,58881.0167,
136.094466,-6615.612252,7877.030882,7506.801208,-7.10905303,0.551377837,1.481118201,33231.915,1,74284.61081,1,68027.60838,0,0,434.0058898,59315.02258,
137.094466,-7039.861933,7907.435834,7593.107983,-7.032683398,0.463071472,1.396578378,33231.915,1,74284.61081,1,68027.60838,0,0,428.2468336,59743.26942,
138.094466,-7459.54588,7932.709079,7674.483644,-6.956893392,0.380247446,1.316690982,33231.915,1,74284.61081,1,68027.60838,0,0,422.6817813,60165.9512,
139.094466,-7874.704133,7953.166718,7751.197386,-6.881851877,0.302484139,1.241128702,33231.915,1,74284.61081,1,68027.60838,0,0,417.3019197,60583.25312,
140.094466,-8285.385762,7969.100667,7823.499537,-6.807692192,0.229396506,1.169589642,33231.915,1,74284.61081,1,68027.60838,0,0,412.0987377,60995.35186,
141.094466,-8691.646928,7980.78076,7891.623028,-6.734518271,0.160632938,1.101795579,33231.915,1,74284.61081,1,68027.60838,0,0,407.0640548,61402.41591,
142.094466,-9093.549275,7988.45666,7955.784767,-6.662409733,0.095872302,1.037490221,33231.915,1,74284.61081,1,68027.60838,0,0,402.1900414,61804.60595,
143.094466,-9491.158605,7992.359609,8016.186895,-6.591426111,0.03482119,0.976437519,33231.915,1,74284.61081,1,68027.60838,0,0,397.4692209,62202.07517,
144.094466,-9884.543776,7992.704013,8073.017962,-6.521610378,-0.02278862,0.918420051,33231.915,1,74284.61081,1,68027.60838,0,0,392.8944752,62594.96965,
145.094466,-10273.7758,7989.68888,8126.45399,-6.45299187,-0.077202488,0.863237507,33231.915,1,74284.61081,1,68027.60838,0,0,388.4590503,62983.4287,
146.094466,-10658.92711,7983.499129,8176.659459,-6.38558872,-0.128645037,0.810705258,33231.915,1,74284.61081,1,68027.60838,0,0,384.156528,63367.58523,
